#ZVView-data-copy:  18-May-2025 12:09:41
#=======================================
#
#name:   ENDF/B-VIII.1: U-238(N,F)
#X.axis: Incident Energy
#Y.axis: Cross Section
#wdata:  2
#ldata:  12043
#data...
#            X            Y
#          MeV        barns
         1e-11  0.000928993 
   1.10304e-11   0.00088454 
   1.21669e-11  0.000842214 
   1.34206e-11  0.000801913 
   1.48034e-11  0.000763541 
   1.63287e-11  0.000727005 
   1.80111e-11  0.000692217 
   1.98669e-11  0.000659094 
   2.19139e-11  0.000627556 
   2.41719e-11  0.000597527 
   2.66625e-11  0.000568935 
   2.94097e-11  0.000541711 
     3.244e-11   0.00051579 
   3.57825e-11  0.000491109 
   3.94694e-11  0.000467609 
   4.35362e-11  0.000445234 
   4.80221e-11  0.000423929 
   5.29701e-11  0.000403644 
    5.8428e-11  0.000384329 
   6.44483e-11  0.000365939 
   7.10888e-11  0.000348429 
   7.84136e-11  0.000331756 
   8.64931e-11  0.000315882 
   9.54051e-11  0.000300767 
   1.05235e-10  0.000286375 
   1.16078e-10  0.000272672 
   1.28039e-10  0.000259625 
   1.41231e-10  0.000247202 
   1.55784e-10  0.000235373 
   1.71835e-10  0.000224111 
    1.8954e-10  0.000213387 
    2.0907e-10  0.000203177 
   2.30612e-10  0.000193455 
   2.54374e-10  0.000184198 
   2.80584e-10  0.000175384 
   3.09494e-10  0.000166993 
   3.41383e-10  0.000159002 
   3.76558e-10  0.000151394 
   4.15358e-10   0.00014415 
   4.58155e-10  0.000137253 
   5.05362e-10  0.000130686 
   5.57433e-10  0.000124433 
   6.14869e-10  0.000118479 
   6.78223e-10  0.000112811 
   7.48105e-10  0.000107413 
   8.25188e-10  0.000102274 
   9.10213e-10    9.7381e-5 
      1.004e-9   9.27219e-5 
    1.10745e-9   8.82859e-5 
    1.22155e-9   8.40621e-5 
    1.34742e-9   8.00405e-5 
    1.48625e-9   7.62114e-5 
    1.63939e-9   7.25656e-5 
    1.80831e-9   6.90943e-5 
    1.99463e-9   6.57891e-5 
    2.20016e-9   6.26422e-5 
    2.42685e-9   5.96459e-5 
    2.67691e-9   5.67932e-5 
    2.95273e-9   5.40771e-5 
    3.25697e-9   5.14913e-5 
    3.59256e-9   4.90295e-5 
    3.96272e-9   4.66858e-5 
    4.37103e-9   4.44543e-5 
    4.82141e-9   4.23297e-5 
    5.31819e-9   4.03065e-5 
    5.86616e-9     3.838e-5 
    6.47059e-9   3.65455e-5 
     7.1373e-9   3.47989e-5 
    7.87271e-9   3.31358e-5 
    8.68389e-9   3.15524e-5 
    9.57865e-9   3.00449e-5 
    1.05656e-8   2.86096e-5 
    1.16543e-8   2.72431e-5 
    1.28551e-8   2.59421e-5 
    1.41796e-8   2.47035e-5 
    1.56406e-8   2.35244e-5 
    1.72522e-8   2.24018e-5 
    1.90298e-8    2.1333e-5 
    2.09906e-8   2.03155e-5 
    2.31534e-8   1.93469e-5 
    2.52419e-8   1.85324e-5 
       2.53e-8   1.85112e-5 
    2.79068e-8   1.76294e-5 
    3.07823e-8     1.679e-5 
     3.3954e-8   1.59909e-5 
    3.74525e-8   1.52303e-5 
    4.13115e-8   1.45062e-5 
    4.55681e-8   1.38171e-5 
    5.02633e-8   1.31612e-5 
    5.54423e-8   1.25369e-5 
    6.11549e-8   1.19428e-5 
    6.74561e-8   1.13775e-5 
    7.44066e-8   1.08394e-5 
    8.20732e-8   1.03275e-5 
    9.05297e-8   9.84043e-6 
    9.98577e-8   9.37702e-6 
    1.10147e-7   8.93617e-6 
    1.21496e-7   8.51684e-6 
    1.34014e-7     8.118e-6 
    1.47823e-7   7.73871e-6 
    1.63054e-7   7.37807e-6 
    1.79855e-7   7.03519e-6 
    1.98386e-7   6.70927e-6 
    2.18827e-7   6.39953e-6 
    2.41375e-7   6.10523e-6 
    2.66245e-7   5.82568e-6 
     2.9575e-7    5.5417e-6 
    3.28508e-7   5.27325e-6 
    3.64913e-7   5.01936e-6 
    4.05332e-7   4.77958e-6 
     4.5025e-7   4.55307e-6 
    5.00121e-7    4.3394e-6 
    5.55544e-7   4.13783e-6 
    6.17077e-7   3.94806e-6 
    6.85461e-7   3.76936e-6 
    7.61385e-7    3.6018e-6 
     8.4576e-7   3.44449e-6 
    9.39439e-7   3.29736e-6 
    1.04355e-6   3.16004e-6 
    1.15913e-6   3.03252e-6 
    1.28758e-6    2.9145e-6 
     1.4302e-6   2.80584e-6 
    1.58869e-6   2.70701e-6 
    1.76466e-6   2.61805e-6 
    1.96022e-6   2.53958e-6 
     2.1927e-6   2.46816e-6 
    2.43557e-6   2.41456e-6 
    2.68652e-6   2.37771e-6 
    2.94272e-6   2.35797e-6 
    3.11073e-6   2.35414e-6 
    3.38351e-6   2.36367e-6 
    3.62902e-6   2.38998e-6 
    3.86527e-6   2.43309e-6 
    4.05942e-6   2.48412e-6 
    4.26038e-6   2.55518e-6 
    4.43515e-6   2.63575e-6 
    4.57622e-6    2.7168e-6 
    4.70625e-6   2.80729e-6 
    4.83998e-6   2.91989e-6 
    4.94265e-6   3.02324e-6 
    5.04774e-6   3.14786e-6 
    5.15481e-6   3.29925e-6 
    5.22753e-6   3.41937e-6 
    5.30129e-6   3.55887e-6 
    5.37608e-6   3.72222e-6 
    5.43296e-6   3.86417e-6 
    5.49038e-6   4.02603e-6 
    5.54834e-6   4.21172e-6 
    5.60684e-6   4.42674e-6 
    5.66617e-6    4.6795e-6 
      5.706e-6   4.87272e-6 
    5.74611e-6      5.09e-6 
     5.7865e-6   5.33586e-6 
    5.82718e-6   5.61582e-6 
    5.86814e-6   5.93681e-6 
    5.89908e-6   6.21002e-6 
    5.93001e-6   6.51434e-6 
    5.96139e-6   6.86017e-6 
    5.99276e-6   7.25036e-6 
    6.02428e-6   7.69551e-6 
     6.0561e-6   8.20955e-6 
    6.07731e-6   8.59503e-6 
    6.09852e-6   9.02051e-6 
    6.11908e-6   9.47701e-6 
    6.13965e-6   9.98337e-6 
    6.16022e-6   1.05475e-5 
    6.18079e-6   1.11792e-5 
    6.19826e-6   1.17773e-5 
    6.21572e-6   1.24413e-5 
    6.23319e-6   1.31816e-5 
    6.25066e-6   1.40111e-5 
     6.2656e-6   1.48032e-5 
    6.28054e-6   1.56839e-5 
    6.29548e-6   1.66676e-5 
    6.31042e-6   1.77719e-5 
    6.32434e-6    1.8928e-5 
    6.33478e-6   1.98887e-5 
    6.34522e-6   2.09415e-5 
    6.35566e-6   2.20994e-5 
     6.3661e-6   2.33773e-5 
    6.37713e-6   2.48771e-5 
    6.38815e-6   2.65568e-5 
    6.39642e-6   2.79534e-5 
    6.40469e-6    2.9485e-5 
    6.41264e-6    3.1104e-5 
    6.41998e-6     3.274e-5 
    6.42731e-6   3.45328e-5 
    6.43465e-6   3.65043e-5 
    6.44199e-6    3.8681e-5 
    6.44932e-6   4.10945e-5 
    6.45615e-6   4.35883e-5 
    6.46298e-6   4.63587e-5 
    6.46981e-6   4.94526e-5 
    6.47493e-6   5.20199e-5 
    6.48048e-6    5.5078e-5 
    6.48624e-6   5.86077e-5 
      6.492e-6   6.25627e-5 
    6.49681e-6   6.62421e-5 
    6.50161e-6   7.03344e-5 
    6.50641e-6   7.49152e-5 
    6.51121e-6   8.00793e-5 
    6.51441e-6   8.39043e-5 
    6.51761e-6   8.80845e-5 
    6.52145e-6   9.36421e-5 
    6.52529e-6   9.98902e-5 
     6.5281e-6  0.000104972 
    6.53116e-6  0.000111073 
     6.5342e-6   0.00011781 
    6.53723e-6  0.000125269 
    6.54025e-6  0.000133602 
    6.54328e-6  0.000142937 
      6.546e-6  0.000152318 
    6.54842e-6  0.000161538 
    6.55084e-6  0.000171685 
    6.55326e-6  0.000182865 
    6.55523e-6  0.000192787 
     6.5575e-6  0.000205263 
    6.55977e-6  0.000218944 
    6.56204e-6  0.000233945 
    6.56431e-6  0.000250393 
    6.56657e-6  0.000268419 
    6.56884e-6  0.000288162 
    6.57111e-6  0.000309768 
    6.57338e-6  0.000333388 
    6.57565e-6  0.000359179 
    6.57792e-6  0.000387299 
    6.58019e-6   0.00041791 
    6.58246e-6  0.000451174 
    6.58473e-6  0.000487249 
      6.587e-6  0.000526289 
    6.58927e-6  0.000568442 
    6.59149e-6  0.000612905 
    6.59362e-6  0.000658595 
    6.59576e-6  0.000707355 
    6.59789e-6  0.000759261 
    6.60073e-6  0.000833457 
    6.60336e-6  0.000907269 
    6.60578e-6  0.000979508 
     6.6082e-6   0.00105589 
    6.61184e-6     0.001178 
    6.61547e-6   0.00130867 
     6.6191e-6   0.00144705 
    6.62394e-6   0.00164154 
    6.63241e-6    0.0019986 
    6.64088e-6   0.00235404 
     6.6462e-6   0.00256243 
    6.65104e-6   0.00273329 
    6.65468e-6   0.00284595 
    6.65831e-6   0.00294267 
    6.66206e-6   0.00302361 
    6.66605e-6   0.00308639 
    6.66923e-6   0.00311798 
    6.67284e-6   0.00313332 
    6.67349e-6   0.00313373 
    6.67743e-6   0.00312081 
    6.68057e-6   0.00309172 
    6.68372e-6   0.00304647 
    6.68735e-6   0.00297522 
    6.69098e-6    0.0028851 
    6.69461e-6   0.00277809 
    6.69824e-6   0.00265648 
    6.70308e-6   0.00247597 
    6.70889e-6   0.00223983 
    6.72244e-6   0.00166329 
    6.72729e-6   0.00146574 
    6.73092e-6   0.00132467 
    6.73455e-6   0.00119107 
    6.73818e-6   0.00106586 
     6.7406e-6  0.000987358 
    6.74302e-6  0.000912982 
    6.74544e-6  0.000842793 
    6.74827e-6  0.000766088 
    6.75069e-6  0.000704801 
    6.75312e-6  0.000647646 
    6.75555e-6  0.000594522 
    6.75798e-6  0.000545304 
    6.76043e-6  0.000499434 
    6.76292e-6  0.000456473 
    6.76542e-6   0.00041711 
    6.76792e-6  0.000381139 
    6.77041e-6  0.000348348 
    6.77291e-6  0.000318525 
    6.77495e-6  0.000296181 
    6.77699e-6  0.000275564 
    6.77904e-6  0.000256563 
    6.78108e-6  0.000239066 
    6.78312e-6  0.000222969 
    6.78516e-6  0.000208169 
     6.7872e-6  0.000194569 
    6.78925e-6  0.000182077 
    6.79129e-6  0.000170605 
    6.79333e-6   0.00016007 
    6.79545e-6  0.000150054 
    6.79772e-6  0.000140257 
    6.79999e-6  0.000131339 
    6.80226e-6  0.000123215 
    6.80452e-6  0.000115809 
    6.80679e-6  0.000109049 
    6.80906e-6  0.000102872 
    6.81133e-6   9.72197e-5 
     6.8136e-6   9.20397e-5 
    6.81587e-6   8.72846e-5 
    6.81889e-6   8.15324e-5 
    6.82151e-6   7.70326e-5 
    6.82413e-6   7.29254e-5 
    6.82588e-6   7.03832e-5 
    6.82937e-6   6.57169e-5 
    6.83286e-6   6.15406e-5 
    6.83636e-6   5.77851e-5 
    6.83985e-6   5.43925e-5 
    6.84334e-6   5.13141e-5 
    6.84683e-6   4.85093e-5 
    6.85069e-6    4.5688e-5 
    6.85455e-6     4.312e-5 
    6.85841e-6   4.07732e-5 
    6.86226e-6   3.86206e-5 
    6.86612e-6   3.66395e-5 
    6.87191e-6   3.39484e-5 
    6.87769e-6   3.15473e-5 
    6.88225e-6   2.98344e-5 
     6.8868e-6   2.82573e-5 
    6.89135e-6   2.68014e-5 
    6.89818e-6   2.48178e-5 
      6.905e-6   2.30434e-5 
    6.91183e-6   2.14492e-5 
    6.91932e-6   1.98792e-5 
    6.92714e-6   1.84122e-5 
    6.93496e-6   1.70973e-5 
    6.94278e-6   1.59141e-5 
     6.9506e-6   1.48457e-5 
    6.95876e-6   1.38387e-5 
    6.96757e-6   1.28569e-5 
    6.97639e-6   1.19724e-5 
     6.9852e-6   1.11727e-5 
    6.99402e-6   1.04476e-5 
    7.00283e-6   9.78827e-6 
    7.01283e-6   9.11079e-6 
    7.02282e-6    8.4988e-6 
    7.03282e-6   7.94434e-6 
    7.04281e-6   7.44061e-6 
    7.05281e-6    6.9818e-6 
    7.06422e-6   6.50643e-6 
    7.07634e-6    6.0514e-6 
    7.08846e-6   5.64139e-6 
    7.10058e-6   5.27088e-6 
    7.11271e-6   4.93518e-6 
    7.12577e-6   4.60783e-6 
     7.1407e-6   4.27174e-6 
    7.15564e-6   3.97128e-6 
    7.17058e-6   3.70184e-6 
    7.18551e-6    3.4595e-6 
    7.20045e-6   3.24095e-6 
    7.21747e-6   3.01731e-6 
     7.2345e-6   2.81736e-6 
    7.25152e-6   2.63812e-6 
    7.26854e-6   2.47703e-6 
    7.28557e-6   2.33192e-6 
    7.30386e-6   2.19161e-6 
     7.3228e-6   2.06144e-6 
    7.34173e-6   1.94468e-6 
    7.36067e-6   1.83972e-6 
     7.3796e-6   1.74518e-6 
    7.39874e-6   1.65898e-6 
     7.4183e-6   1.57953e-6 
    7.43785e-6   1.50781e-6 
     7.4574e-6   1.44296e-6 
    7.48348e-6   1.36594e-6 
    7.51111e-6   1.29453e-6 
    7.54031e-6   1.22889e-6 
    7.56616e-6   1.17804e-6 
    7.59991e-6   1.12047e-6 
    7.63524e-6   1.06934e-6 
    7.67049e-6   1.02612e-6 
    7.70746e-6   9.87853e-7 
    7.74346e-6   9.56448e-7 
    7.78948e-6   9.23357e-7 
    7.83953e-6   8.94755e-7 
    7.89464e-6   8.70371e-7 
    7.95013e-6   8.51843e-7 
    8.00601e-6   8.38128e-7 
    8.06229e-6   8.28333e-7 
     8.1473e-6   8.19456e-7 
    8.23351e-6   8.15936e-7 
    8.26225e-6   8.15715e-7 
    8.38401e-6   8.18767e-7 
     8.5023e-6    8.2626e-7 
    8.68307e-6    8.4297e-7 
    8.99236e-6   8.78816e-7 
    1.02843e-5   1.04024e-6 
    1.16078e-5   1.20237e-6 
    1.22769e-5   1.29181e-6 
    1.28039e-5   1.37004e-6 
    1.32599e-5    1.4457e-6 
    1.36367e-5   1.51551e-6 
    1.40242e-5   1.59607e-6 
    1.44227e-5   1.69024e-6 
    1.47294e-5   1.77257e-6 
    1.50418e-5   1.86717e-6 
    1.53616e-5   1.97757e-6 
    1.55784e-5   2.06192e-6 
    1.57981e-5   2.15672e-6 
     1.6021e-5   2.26411e-6 
    1.62471e-5   2.38668e-6 
    1.64763e-5   2.52771e-6 
    1.66502e-5   2.64815e-6 
    1.68258e-5   2.78359e-6 
    1.70038e-5   2.93759e-6 
    1.71835e-5    3.1132e-6 
    1.73649e-5   3.31486e-6 
     1.7487e-5   3.46707e-6 
    1.76099e-5   3.63595e-6 
    1.77337e-5   3.82416e-6 
    1.78583e-5   4.03496e-6 
    1.79839e-5   4.27256e-6 
    1.81103e-5   4.54194e-6 
    1.82058e-5   4.76875e-6 
    1.83012e-5   5.01895e-6 
    1.83981e-5   5.30023e-6 
    1.84949e-5   5.61381e-6 
    1.85922e-5   5.96628e-6 
    1.86904e-5    6.3664e-6 
    1.87886e-5   6.82032e-6 
    1.88545e-5   7.16009e-6 
    1.89209e-5   7.53494e-6 
    1.89872e-5   7.94731e-6 
    1.90536e-5   8.40268e-6 
    1.91198e-5   8.90589e-6 
    1.91858e-5   9.46395e-6 
    1.92517e-5   1.00872e-5 
    1.93177e-5   1.07867e-5 
    1.93787e-5   1.15133e-5 
    1.94293e-5   1.21826e-5 
    1.94866e-5   1.30289e-5 
    1.95418e-5   1.39425e-5 
    1.95913e-5   1.48613e-5 
    1.96346e-5   1.57538e-5 
    1.96771e-5   1.67226e-5 
    1.97171e-5   1.77308e-5 
    1.97572e-5   1.88456e-5 
    1.97972e-5   2.00831e-5 
    1.98287e-5   2.11536e-5 
    1.98629e-5    2.2433e-5 
    1.98972e-5   2.38462e-5 
    1.99314e-5   2.54131e-5 
    1.99657e-5   2.71575e-5 
          2e-5   2.91083e-5 
    2.00329e-5   3.12089e-5 
    2.00658e-5     3.357e-5 
    2.00964e-5   3.60373e-5 
    2.01223e-5   3.83683e-5 
    2.01482e-5   4.09548e-5 
    2.01746e-5   4.38938e-5 
    2.01923e-5   4.60688e-5 
    2.02171e-5   4.93994e-5 
    2.02377e-5    5.2483e-5 
    2.02593e-5   5.60691e-5 
    2.02794e-5   5.97666e-5 
    2.02974e-5   6.34312e-5 
    2.03128e-5   6.68691e-5 
     2.0331e-5   7.13194e-5 
    2.03457e-5   7.52786e-5 
    2.03605e-5   7.96033e-5 
    2.03727e-5   8.35004e-5 
    2.03873e-5   8.85791e-5 
    2.04041e-5   9.50685e-5 
    2.04183e-5  0.000101197 
    2.04326e-5  0.000107988 
     2.0445e-5   0.00011453 
    2.04574e-5  0.000121738 
    2.04695e-5  0.000129435 
    2.04807e-5  0.000137351 
    2.04919e-5  0.000146088 
    2.05022e-5  0.000154941 
     2.0512e-5  0.000164256 
    2.05219e-5  0.000174537 
    2.05317e-5  0.000185938 
    2.05416e-5  0.000198654 
     2.0551e-5   0.00021234 
    2.05597e-5  0.000226418 
    2.05684e-5  0.000242222 
    2.05742e-5   0.00025389 
      2.058e-5   0.00026661 
    2.05857e-5  0.000280537 
    2.05915e-5  0.000295855 
    2.05974e-5  0.000313151 
    2.06035e-5  0.000332817 
    2.06095e-5  0.000354883 
     2.0614e-5  0.000373267 
    2.06185e-5  0.000393458 
    2.06231e-5  0.000415703 
    2.06276e-5  0.000440284 
    2.06321e-5  0.000467522 
    2.06366e-5  0.000497782 
    2.06411e-5  0.000531479 
    2.06452e-5  0.000564793 
    2.06489e-5  0.000599231 
    2.06527e-5  0.000637069 
    2.06565e-5  0.000678675 
    2.06603e-5  0.000724455 
    2.06641e-5  0.000774849 
    2.06679e-5  0.000830331 
    2.06717e-5  0.000891414 
    2.06754e-5  0.000958651 
    2.06792e-5   0.00103263 
     2.0683e-5   0.00111397 
    2.06861e-5   0.00118602 
    2.06892e-5   0.00126375 
    2.06922e-5   0.00134754 
    2.06953e-5   0.00143779 
    2.06984e-5   0.00153491 
    2.07015e-5   0.00163931 
    2.07045e-5   0.00175141 
    2.07076e-5   0.00187164 
    2.07107e-5   0.00200042 
    2.07138e-5   0.00213818 
    2.07177e-5    0.0023262 
    2.07214e-5   0.00251896 
    2.07251e-5   0.00272665 
    2.07288e-5   0.00294989 
    2.07325e-5   0.00318923 
    2.07361e-5   0.00344518 
    2.07398e-5   0.00371815 
    2.07435e-5   0.00400844 
    2.07476e-5   0.00435157 
    2.07521e-5   0.00475413 
    2.07567e-5   0.00518283 
    2.07612e-5   0.00563715 
    2.07674e-5   0.00630085 
    2.07733e-5   0.00697389 
    2.07808e-5   0.00788366 
     2.0789e-5   0.00892225 
     2.0812e-5    0.0119185 
    2.08214e-5    0.0130725 
    2.08297e-5    0.0140161 
    2.08363e-5    0.0146748 
    2.08429e-5    0.0152456 
    2.08494e-5    0.0157149 
     2.0856e-5    0.0160714 
    2.08614e-5    0.0162743 
    2.08667e-5    0.0163896 
    2.08713e-5    0.0164208 
     2.0878e-5    0.0163525 
    2.08839e-5    0.0161811 
    2.08892e-5     0.015944 
    2.08957e-5    0.0155415 
    2.09023e-5    0.0150306 
    2.09089e-5    0.0144234 
    2.09167e-5    0.0135877 
    2.09246e-5    0.0126606 
    2.09345e-5    0.0114157 
    2.09558e-5   0.00863003 
    2.09646e-5   0.00753809 
    2.09722e-5   0.00663738 
    2.09781e-5   0.00598608 
    2.09842e-5   0.00534591 
    2.09883e-5   0.00494505 
    2.09924e-5   0.00456554 
    2.09973e-5    0.0041387 
    2.10023e-5   0.00374302 
    2.10072e-5   0.00337815 
    2.10105e-5   0.00315167 
    2.10138e-5   0.00293827 
     2.1017e-5   0.00273761 
    2.10207e-5    0.0025266 
    2.10248e-5   0.00230974 
    2.10289e-5   0.00211054 
     2.1032e-5   0.00197216 
    2.10351e-5   0.00184276 
    2.10382e-5   0.00172193 
    2.10413e-5   0.00160924 
    2.10443e-5   0.00150428 
    2.10474e-5   0.00140663 
    2.10505e-5   0.00131588 
    2.10539e-5   0.00122381 
    2.10574e-5   0.00113545 
    2.10609e-5   0.00105446 
    2.10644e-5  0.000980299 
     2.1068e-5   0.00091243 
    2.10715e-5   0.00085036 
     2.1075e-5  0.000793618 
    2.10785e-5  0.000741763 
     2.1082e-5  0.000694377 
    2.10856e-5  0.000651075 
    2.10891e-5  0.000611496 
    2.10933e-5  0.000568797 
    2.10975e-5  0.000530381 
    2.11017e-5   0.00049578 
    2.11059e-5  0.000464574 
      2.111e-5  0.000436385 
    2.11142e-5  0.000410875 
    2.11184e-5  0.000387742 
    2.11226e-5  0.000366718 
    2.11268e-5  0.000347565 
     2.1131e-5  0.000330074 
    2.11353e-5   0.00031363 
    2.11399e-5  0.000297786 
    2.11459e-5  0.000278739 
     2.1152e-5  0.000261735 
     2.1158e-5  0.000246472 
    2.11641e-5  0.000232697 
    2.11701e-5  0.000220203 
    2.11762e-5  0.000208818 
    2.11823e-5  0.000198396 
    2.11884e-5  0.000188735 
    2.11975e-5  0.000175633 
    2.12067e-5  0.000163953 
    2.12159e-5  0.000153474 
     2.1225e-5  0.000144021 
    2.12357e-5  0.000134149 
    2.12447e-5  0.000126552 
    2.12538e-5  0.000119599 
    2.12628e-5  0.000113215 
    2.12719e-5  0.000107336 
     2.1281e-5  0.000101909 
    2.12945e-5   9.45126e-5 
    2.13085e-5   8.77396e-5 
    2.13231e-5   8.13891e-5 
    2.13377e-5   7.57002e-5 
    2.13522e-5   7.05826e-5 
    2.13668e-5   6.59609e-5 
    2.13814e-5   6.17725e-5 
    2.13973e-5   5.76432e-5 
    2.14132e-5   5.39068e-5 
    2.14291e-5   5.05148e-5 
     2.1445e-5   4.74259e-5 
    2.14609e-5   4.46049e-5 
    2.14795e-5   4.16043e-5 
    2.14994e-5   3.87009e-5 
    2.15194e-5    3.6082e-5 
    2.15393e-5   3.37117e-5 
    2.15593e-5   3.15596e-5 
    2.15802e-5   2.95092e-5 
     2.1603e-5   2.74806e-5 
    2.16259e-5   2.56462e-5 
    2.16487e-5   2.39822e-5 
    2.16716e-5   2.24682e-5 
    2.16944e-5    2.1087e-5 
    2.17202e-5   1.96705e-5 
     2.1746e-5   1.83855e-5 
    2.17717e-5   1.72164e-5 
    2.17975e-5   1.61499e-5 
    2.18233e-5   1.51745e-5 
    2.18497e-5   1.42572e-5 
    2.18765e-5   1.34056e-5 
    2.19033e-5    1.2624e-5 
    2.19301e-5   1.19051e-5 
     2.1957e-5   1.12426e-5 
    2.19884e-5   1.05302e-5 
    2.20155e-5   9.96571e-6 
    2.20426e-5   9.44268e-6 
    2.20832e-5   8.72755e-6 
    2.21239e-5   8.08592e-6 
    2.21645e-5   7.50834e-6 
    2.22045e-5   6.99431e-6 
    2.22433e-5   6.54178e-6 
    2.22821e-5   6.12913e-6 
     2.2321e-5   5.75196e-6 
    2.23598e-5   5.40645e-6 
    2.23986e-5    5.0893e-6 
     2.2442e-5   4.76417e-6 
    2.24855e-5   4.46736e-6 
    2.25289e-5   4.19576e-6 
    2.25724e-5   3.94673e-6 
    2.26159e-5   3.71799e-6 
    2.26583e-5   3.51228e-6 
    2.27142e-5   3.26507e-6 
    2.27701e-5    3.0418e-6 
     2.2826e-5   2.83965e-6 
    2.28741e-5   2.68074e-6 
    2.29345e-5   2.49856e-6 
     2.2995e-5   2.33375e-6 
    2.30554e-5   2.18421e-6 
    2.31159e-5   2.04816e-6 
    2.31763e-5   1.92417e-6 
    2.32343e-5   1.81553e-6 
    2.32922e-5    1.7159e-6 
    2.33309e-5   1.65404e-6 
    2.34081e-5   1.54019e-6 
    2.34854e-5   1.43804e-6 
    2.35682e-5   1.33987e-6 
