#ZVView-data-copy:  15-Oct-2023 02:08:41
#=======================================
#
#name:   ENDF/B-VIII.0: U-235(N,F)
#X.axis: Incident Energy
#Y.axis: Cross Section
#wdata:  2
#ldata:  46125
#data...
#            X            Y
#          MeV        barns
         1e-11      30922.8 
   1.10304e-11        29443 
   1.21669e-11        28034 
   1.34206e-11      26692.4 
   1.48034e-11      25415.1 
   1.63287e-11      24198.8 
   1.80111e-11      23040.7 
   1.98669e-11      21938.1 
   2.19139e-11      20888.2 
   2.41719e-11      19888.5 
   2.66625e-11      18936.7 
   2.94097e-11      18030.4 
     3.244e-11      17167.4 
   3.57825e-11      16345.7 
   3.94694e-11      15563.4 
   4.35362e-11      14818.5 
   4.80221e-11      14109.2 
   5.29701e-11      13433.8 
    5.8428e-11      12790.8 
   6.44483e-11      12178.5 
   7.10888e-11      11595.4 
   7.84136e-11      11040.3 
   8.64931e-11      10511.7 
   9.54051e-11      10008.4 
   1.05235e-10      9529.22 
   1.16078e-10       9072.9 
   1.28039e-10      8638.41 
   1.41231e-10      8224.68 
   1.55784e-10      7830.74 
   1.71835e-10      7455.63 
    1.8954e-10      7098.45 
    2.0907e-10      6758.33 
   2.30612e-10      6434.48 
   2.54374e-10      6126.09 
   2.80584e-10      5832.44 
   3.09494e-10      5552.82 
   3.41383e-10      5286.55 
   3.76558e-10      5032.99 
   4.15358e-10      4791.54 
   4.58155e-10      4561.61 
   5.05362e-10      4342.66 
   5.57433e-10      4134.15 
   6.14869e-10      3935.58 
   6.78223e-10      3746.48 
   7.48105e-10       3566.4 
   8.25188e-10      3394.89 
   9.10213e-10      3231.56 
      1.004e-9         3076 
    1.10745e-9      2927.85 
    1.22155e-9      2786.74 
    1.34742e-9      2652.35 
    1.48625e-9      2524.34 
    1.63939e-9      2402.42 
    1.80831e-9      2286.28 
    1.99463e-9      2175.67 
    2.20016e-9       2070.3 
    2.42685e-9      1969.94 
    2.67691e-9      1874.35 
    2.95273e-9      1783.31 
    3.25697e-9      1696.61 
    3.59256e-9      1614.04 
    3.96272e-9      1535.42 
    4.37103e-9      1460.53 
    4.82141e-9      1389.19 
    5.31819e-9       1321.2 
    5.86616e-9       1256.4 
    6.47059e-9      1194.67 
     7.1373e-9      1135.89 
    7.87271e-9      1079.92 
    8.68389e-9      1026.65 
    9.57865e-9      975.963 
    1.05656e-8       927.74 
    1.16543e-8       881.85 
    1.28551e-8      838.144 
    1.41796e-8      796.487 
    1.56406e-8      756.773 
    1.72522e-8      718.903 
    1.90298e-8      682.769 
    2.09906e-8       648.26 
    2.31534e-8      615.276 
    2.52419e-8      587.418 
       2.53e-8      586.691 
    2.79068e-8      556.334 
    3.07823e-8      527.201 
     3.3954e-8      499.242 
    3.74525e-8      472.446 
    4.13115e-8      446.733 
    4.55681e-8       421.99 
    4.99137e-8      399.893 
     5.4671e-8       378.66 
    5.98846e-8      358.256 
    6.55923e-8      338.696 
    7.18474e-8      319.955 
    7.86952e-8      302.058 
    8.55961e-8      286.281 
    9.31022e-8      271.239 
    1.01266e-7      256.957 
    1.10147e-7      243.473 
    1.18972e-7       231.86 
    1.28499e-7      221.037 
    1.38795e-7      211.086 
    1.48866e-7      202.918 
    1.59667e-7      195.734 
    1.70053e-7      190.282 
    1.79855e-7      186.411 
    1.90221e-7      183.656 
    1.99786e-7      182.342 
    2.05883e-7      182.119 
    2.16235e-7      182.817 
    2.27097e-7      184.895 
     2.4188e-7      189.388 
    2.59431e-7      195.192 
    2.69701e-7       197.36 
      2.767e-7      197.784 
    2.84562e-7      196.974 
    2.92648e-7      194.608 
    3.00964e-7       190.61 
    3.09516e-7      185.091 
    3.20556e-7      176.473 
    3.51109e-7      150.228 
    3.63633e-7      140.359 
    3.76585e-7      131.191 
    3.87286e-7      124.433 
    3.98291e-7      118.205 
    4.09608e-7      112.492 
    4.21247e-7       107.26 
    4.36273e-7      101.331 
    4.51813e-7      96.0186 
    4.67929e-7      91.2298 
    4.84596e-7      86.9096 
    5.01882e-7      82.9868 
    5.19759e-7      79.4228 
    5.42069e-7      75.5524 
    5.65337e-7       72.076 
    5.89604e-7       68.951 
    6.14912e-7      66.1469 
    6.41307e-7       63.641 
    6.68835e-7       61.425 
    6.97544e-7      59.4992 
    7.27486e-7      57.8702 
    7.58713e-7      56.5731 
    7.85776e-7      55.7818 
    8.13765e-7      55.3045 
    8.36561e-7      55.1968 
    8.60332e-7      55.3878 
    8.84779e-7      55.9605 
    9.03591e-7      56.7096 
    9.22758e-7      57.8046 
    9.42377e-7      59.3449 
    9.55672e-7      60.6788 
    9.69155e-7      62.3161 
    9.82828e-7       64.319 
    9.96694e-7      66.7637 
    1.01076e-6      69.7419 
    1.02143e-6      72.3866 
     1.0322e-6      75.4316 
    1.04312e-6      78.9335 
    1.05414e-6      82.9017 
    1.06901e-6      88.8857 
    1.09513e-6      100.099 
    1.10545e-6       103.97 
    1.11325e-6       106.26 
     1.1191e-6      107.458 
    1.12593e-6      108.147 
    1.12837e-6      108.181 
    1.13488e-6      107.671 
    1.14086e-6      106.385 
      1.146e-6      104.639 
    1.15111e-6      102.323 
    1.15618e-6      99.4887 
    1.16295e-6      94.9732 
     1.1691e-6      90.2672 
    1.17525e-6      85.1481 
    1.19599e-6      66.9211 
    1.20443e-6      59.9031 
    1.21076e-6       55.006 
    1.21715e-6      50.4382 
    1.22356e-6      46.2531 
    1.22784e-6       43.691 
    1.23215e-6       41.293 
    1.23649e-6      39.0588 
    1.24083e-6      37.0004 
    1.24516e-6      35.1122 
    1.24933e-6      33.4552 
    1.25331e-6       32.006 
     1.2573e-6      30.6879 
    1.26128e-6       29.498 
    1.26672e-6      28.0767 
    1.27189e-6      26.9372 
    1.27706e-6      25.9968 
    1.28171e-6      25.3121 
    1.28636e-6      24.7686 
    1.29118e-6      24.3368 
    1.29704e-6      23.9598 
    1.30655e-6      23.5681 
    1.32047e-6      23.0963 
    1.33081e-6      22.6003 
    1.34115e-6      21.9485 
    1.36526e-6      20.2349 
    1.37905e-6      19.3685 
    1.39283e-6      18.6414 
    1.40661e-6      18.0408 
    1.42039e-6      17.5432 
    1.44107e-6      16.9435 
     1.4614e-6      16.4786 
    1.48202e-6      16.0961 
    1.51353e-6      15.6294 
    1.54563e-6       15.251 
    1.58955e-6      14.8311 
    1.64625e-6      14.3901 
    1.71692e-6      13.9406 
    1.77807e-6      13.6276 
     1.8286e-6      13.4431 
    1.86612e-6       13.389 
    1.88981e-6      13.4281 
    1.90943e-6      13.5431 
    1.92245e-6       13.691 
     1.9339e-6      13.8987 
    1.94281e-6      14.1371 
    1.95044e-6        14.42 
    1.95808e-6       14.805 
    1.96316e-6      15.1374 
    1.96825e-6      15.5467 
    1.97334e-6      16.0491 
    1.97843e-6      16.6609 
    1.98352e-6       17.397 
    1.98861e-6      18.2676 
     1.9937e-6      19.2735 
    1.99879e-6      20.4022 
    2.00897e-6      22.8885 
     2.0166e-6      24.7135 
     2.0208e-6      25.5918 
    2.02411e-6        26.18 
    2.02831e-6      26.7582 
     2.0319e-6       27.078 
    2.03554e-6      27.2213 
    2.03661e-6      27.2274 
    2.04043e-6       27.115 
    2.04409e-6      26.8158 
    2.04663e-6      26.5042 
     2.0507e-6      25.8485 
    2.05478e-6      25.0315 
    2.05987e-6      23.8477 
    2.07259e-6      20.6187 
    2.07768e-6      19.3998 
    2.08277e-6        18.29 
    2.08786e-6      17.3089 
    2.09295e-6      16.4616 
    2.09804e-6      15.7421 
    2.10313e-6      15.1381 
    2.10822e-6      14.6342 
    2.11331e-6      14.2143 
     2.1184e-6      13.8638 
    2.12603e-6        13.44 
    2.13366e-6      13.1083 
    2.14435e-6      12.7516 
     2.1525e-6      12.5386 
    2.16768e-6      12.2302 
    2.18286e-6      11.9967 
    2.20596e-6      11.7254 
    2.22927e-6      11.5114 
    2.27656e-6      11.1698 
    2.39103e-6      10.5042 
    2.45635e-6      10.1095 
    2.50404e-6      9.76756 
    2.53582e-6      9.49275 
    2.56761e-6      9.16037 
    2.59145e-6      8.85992 
    2.61529e-6      8.50546 
    2.63119e-6      8.23777 
    2.67092e-6      7.52143 
    2.68284e-6      7.34519 
    2.69079e-6      7.26184 
    2.69913e-6      7.21972 
    2.70132e-6      7.21844 
    2.70787e-6      7.24409 
    2.71403e-6      7.31486 
     2.7194e-6      7.41935 
    2.72476e-6      7.56855 
    2.73052e-6      7.78299 
    2.73648e-6      8.06744 
    2.74244e-6      8.41724 
      2.749e-6      8.87648 
    2.75496e-6       9.3576 
    2.76152e-6       9.9486 
    2.76867e-6      10.6527 
    2.78377e-6      12.2514 
    2.79549e-6      13.4894 
    2.80681e-6      14.5951 
    2.81436e-6      15.2573 
    2.82191e-6      15.8509 
    2.82986e-6      16.4007 
    2.83781e-6      16.8777 
    2.84973e-6      17.4756 
    2.86125e-6      17.9497 
     2.8839e-6      18.7149 
     2.9141e-6      19.6955 
    2.92916e-6      20.2692 
    2.94422e-6       20.947 
    2.95924e-6      21.7617 
     2.9705e-6      22.4869 
    2.98218e-6      23.3652 
    2.99407e-6      24.4172 
    3.00596e-6      25.6602 
    3.01388e-6      26.6133 
    3.02181e-6      27.6802 
    3.02973e-6      28.8738 
    3.03766e-6      30.2073 
    3.04558e-6      31.6929 
    3.05351e-6      33.3402 
    3.06143e-6      35.1544 
    3.06936e-6      37.1327 
    3.08006e-6      40.0362 
    3.10581e-6      47.5049 
    3.11374e-6      49.6268 
    3.12166e-6      51.4744 
    3.12761e-6      52.6064 
    3.13252e-6      53.3389 
    3.13704e-6      53.8274 
    3.14282e-6      54.1692 
    3.14572e-6      54.2136 
    3.15178e-6      54.0239 
    3.15812e-6      53.4146 
    3.16327e-6      52.6201 
    3.16921e-6      51.3944 
    3.17516e-6      49.8754 
     3.1811e-6      48.1123 
    3.18903e-6      45.4789 
     3.2128e-6      36.9131 
    3.22073e-6      34.2095 
    3.22865e-6      31.7078 
     3.2346e-6       29.987 
    3.24054e-6      28.4082 
    3.24648e-6      26.9733 
    3.25243e-6      25.6798 
    3.25837e-6       24.522 
    3.26432e-6      23.4925 
    3.27026e-6      22.5824 
     3.2762e-6      21.7823 
    3.28413e-6      20.8706 
    3.29205e-6       20.117 
    3.29998e-6      19.5024 
     3.3079e-6        19.01 
    3.31583e-6      18.6253 
    3.32375e-6      18.3365 
    3.33168e-6      18.1336 
    3.34198e-6      17.9855 
    3.34832e-6      17.9542 
    3.36021e-6      18.0097 
     3.3721e-6      18.2071 
    3.38398e-6      18.5438 
    3.39587e-6      19.0235 
    3.40776e-6      19.6563 
    3.41838e-6      20.3648 
    3.42836e-6      21.1709 
    3.43835e-6      22.1334 
    3.44555e-6        22.94 
    3.45276e-6      23.8547 
    3.45996e-6       24.893 
    3.46717e-6      26.0735 
    3.47437e-6       27.419 
    3.48158e-6      28.9567 
    3.48878e-6      30.7191 
    3.49599e-6      32.7444 
    3.50079e-6      34.2623 
    3.50559e-6       35.931 
     3.5104e-6      37.7659 
     3.5152e-6      39.7826 
       3.52e-6      41.9966 
    3.52481e-6      44.4225 
    3.52961e-6      47.0726 
    3.53441e-6      49.9554 
    3.53922e-6      53.0741 
    3.54402e-6      56.4243 
    3.55122e-6      61.8494 
    3.56083e-6       69.655 
    3.57284e-6      79.6603 
    3.58052e-6      85.6172 
    3.58629e-6      89.5294 
    3.59061e-6      92.0142 
    3.59541e-6      94.2126 
    3.60022e-6      95.7224 
    3.60382e-6      96.3532 
    3.60742e-6      96.5256 
    3.61127e-6      96.1866 
    3.61559e-6      95.1531 
    3.61991e-6      93.4406 
    3.62351e-6      91.5179 
    3.62712e-6      89.1758 
    3.63132e-6      85.9646 
    3.63672e-6       81.192 
    3.64213e-6      75.8597 
     3.6498e-6      67.6985 
    3.66157e-6      54.9023 
    3.66754e-6      48.7163 
    3.67152e-6      44.8085 
     3.6755e-6      41.1085 
    3.67968e-6      37.4704 
    3.68386e-6      34.0966 
    3.68699e-6      31.7427 
    3.69012e-6      29.5397 
    3.69361e-6      27.2654 
    3.69639e-6      25.5738 
    3.69918e-6      23.9916 
    3.70196e-6      22.5145 
    3.70475e-6      21.1375 
    3.70753e-6      19.8555 
    3.71032e-6      18.6632 
     3.7131e-6      17.5552 
    3.71606e-6       16.467 
    3.71873e-6      15.5528 
    3.72216e-6      14.4733 
    3.72558e-6      13.4886 
    3.72926e-6      12.5278 
    3.73204e-6      11.8602 
    3.73622e-6       10.947 
    3.73901e-6      10.3919 
    3.74263e-6      9.72814 
    3.74625e-6      9.12406 
    3.74987e-6      8.57379 
    3.75349e-6      8.07215 
    3.75767e-6       7.5477 
    3.76185e-6      7.07549 
    3.76602e-6      6.64996 
     3.7702e-6      6.26619 
    3.77438e-6      5.91986 
    3.77856e-6      5.60713 
    3.78274e-6       5.3246 
    3.78691e-6      5.06921 
    3.79109e-6      4.83826 
    3.79527e-6      4.62931 
    3.80084e-6      4.38119 
    3.80641e-6      4.16375 
    3.81198e-6      3.97302 
    3.81755e-6      3.80556 
    3.82312e-6      3.65839 
    3.82869e-6      3.52893 
    3.83426e-6      3.41494 
    3.84262e-6       3.2688 
    3.85098e-6      3.14773 
    3.85933e-6      3.04733 
    3.86769e-6      2.96406 
    3.87604e-6      2.89505 
    3.88719e-6      2.82125 
    3.89833e-6      2.76429 
    3.90947e-6      2.72078 
    3.92618e-6      2.67505 
    3.94011e-6      2.65067 
    3.95682e-6      2.63363 
     3.9811e-6      2.62587 
    4.01614e-6      2.63715 
    4.05858e-6      2.66987 
    4.17391e-6      2.79092 
    4.32258e-6      2.95662 
    4.38356e-6      3.03313 
    4.44541e-6      3.12617 
    4.49245e-6      3.21578 
    4.52403e-6      3.29062 
    4.55583e-6      3.38371 
    4.57979e-6      3.47042 
    4.60398e-6      3.57837 
     4.6201e-6      3.66584 
    4.63623e-6      3.77001 
    4.64917e-6      3.86941 
    4.66212e-6      3.98725 
    4.67507e-6      4.12943 
    4.68478e-6       4.2572 
    4.69363e-6      4.39445 
    4.70206e-6      4.54882 
    4.71049e-6      4.73337 
    4.71611e-6      4.87784 
    4.72173e-6      5.04383 
    4.72736e-6      5.23617 
    4.73297e-6      5.46091 
    4.73815e-6      5.70266 
    4.74332e-6      5.98511 
    4.74719e-6      6.22853 
    4.75107e-6       6.5033 
    4.75512e-6      6.82801 
     4.7595e-6      7.22938 
    4.76389e-6       7.6888 
     4.7676e-6      8.12777 
    4.77097e-6      8.57013 
    4.77434e-6      9.05627 
    4.77771e-6      9.58816 
    4.78109e-6      10.1671 
    4.78558e-6       11.013 
    4.79008e-6      11.9414 
    4.79458e-6      12.9465 
    4.79907e-6      14.0178 
    4.80806e-6      16.2915 
    4.81706e-6      18.5772 
    4.82155e-6      19.6481 
    4.82605e-6      20.6254 
    4.83055e-6      21.4748 
    4.83504e-6      22.1643 
    4.83853e-6      22.5709 
    4.84224e-6      22.8683 
    4.84561e-6        23.01 
    4.84781e-6      23.0342 
    4.85134e-6      22.9591 
    4.85483e-6      22.7486 
     4.8582e-6      22.4198 
    4.86157e-6      21.9747 
    4.86494e-6      21.4224 
    4.86832e-6      20.7743 
    4.87281e-6      19.7838 
    4.87731e-6      18.6803 
    4.88405e-6      16.8918 
    4.89495e-6      13.9317 
    4.89975e-6      12.6911 
     4.9049e-6      11.4471 
    4.90845e-6      10.6529 
      4.912e-6      9.91557 
    4.91555e-6      9.23757 
    4.91856e-6      8.70863 
    4.92158e-6       8.2229 
     4.9246e-6      7.77945 
    4.92761e-6      7.37681 
    4.93063e-6       7.0131 
    4.93364e-6      6.68615 
    4.93666e-6      6.39356 
    4.93968e-6      6.13284 
    4.94322e-6      5.86345 
    4.94677e-6      5.63054 
    4.95032e-6      5.43014 
    4.95387e-6       5.2585 
    4.95742e-6      5.11216 
    4.96097e-6      4.98796 
    4.96629e-6      4.83705 
     4.9709e-6        4.735 
    4.97658e-6      4.63916 
    4.98226e-6      4.56986 
    4.98793e-6       4.5218 
    4.99432e-6      4.48803 
    5.00142e-6      4.47059 
    5.00497e-6      4.46843 
    5.01561e-6      4.48314 
    5.02626e-6      4.52356 
    5.04045e-6      4.60858 
    5.05606e-6      4.73547 
    5.07309e-6        4.908 
    5.09013e-6      5.11319 
    5.10716e-6      5.35016 
     5.1247e-6      5.62782 
    5.14274e-6      5.95059 
    5.16078e-6      6.31315 
    5.17883e-6      6.71801 
      5.197e-6      7.17112 
    5.21529e-6      7.67602 
    5.23359e-6      8.23186 
    5.25189e-6      8.84004 
    5.27296e-6      9.60525 
    5.28487e-6      10.0683 
    5.30871e-6      11.0564 
       5.33e-6      12.0035 
    5.35838e-6      13.3524 
    5.38705e-6      14.8048 
    5.41799e-6      16.3725 
    5.43219e-6      16.9907 
    5.44493e-6      17.4231 
    5.45622e-6      17.6791 
    5.46806e-6      17.8088 
    5.47334e-6      17.8235 
     5.4871e-6      17.7607 
     5.5152e-6      17.4078 
    5.54387e-6      17.0787 
    5.59751e-6      16.6082 
      5.638e-6      16.1567 
    5.69278e-6      15.5106 
    5.72017e-6       15.242 
    5.74755e-6      15.0425 
    5.77083e-6      14.9421 
    5.79411e-6      14.9174 
    5.82013e-6      14.9939 
    5.83964e-6      15.1341 
    5.85984e-6      15.3653 
    5.88038e-6      15.7031 
    5.90092e-6      16.1614 
    5.91461e-6      16.5442 
    5.92831e-6      16.9974 
      5.942e-6      17.5301 
    5.95569e-6      18.1527 
    5.96939e-6      18.8772 
    5.98308e-6      19.7176 
    5.99678e-6      20.6895 
    6.01047e-6      21.8106 
    6.02416e-6      23.0995 
    6.03443e-6      24.1877 
     6.0447e-6      25.3886 
    6.05497e-6      26.7088 
    6.06524e-6      28.1531 
     6.0762e-6      29.8324 
    6.08715e-6      31.6519 
    6.10359e-6      34.6192 
    6.12276e-6      38.3455 
    6.15014e-6      43.7282 
    6.16384e-6       46.192 
    6.17178e-6      47.4823 
    6.18424e-6      49.2395 
     6.1967e-6      50.6203 
    6.20834e-6      51.5547 
    6.21998e-6      52.1782 
    6.25079e-6      53.1877 
    6.26106e-6      53.8266 
    6.26876e-6      54.6438 
     6.2739e-6       55.423 
    6.27904e-6      56.4417 
    6.28503e-6      57.9976 
    6.29016e-6       59.704 
     6.2953e-6      61.8081 
    6.30043e-6      64.3584 
    6.30557e-6      67.3976 
    6.31062e-6       70.895 
    6.31549e-6      74.7705 
    6.32037e-6       79.135 
    6.32525e-6      83.9704 
    6.33176e-6       91.076 
    6.33843e-6      98.9861 
    6.35484e-6      119.181 
    6.36097e-6      126.093 
    6.36598e-6      131.077 
    6.37098e-6       135.26 
    6.37549e-6      138.193 
    6.37999e-6      140.221 
    6.38375e-6      141.157 
    6.38688e-6      141.385 
    6.39086e-6      140.929 
    6.39449e-6       139.78 
    6.39902e-6       137.38 
    6.40315e-6      134.298 
    6.40803e-6      129.639 
    6.41254e-6      124.472 
    6.41704e-6      118.603 
    6.42205e-6      111.431 
    6.42956e-6      99.8265 
    6.44182e-6      80.2949 
    6.44815e-6      70.6299 
    6.45327e-6      63.2769 
    6.45798e-6      56.9581 
    6.46152e-6       52.535 
    6.46505e-6      48.3972 
    6.46859e-6      44.5506 
    6.47162e-6      41.4858 
    6.47465e-6      38.6325 
    6.47768e-6      35.9861 
    6.48071e-6      33.5397 
    6.48374e-6      31.2851 
    6.48677e-6      29.2131 
     6.4898e-6      27.3134 
    6.49283e-6      25.5755 
     6.4962e-6      23.8208 
    6.49957e-6      22.2372 
    6.50294e-6      20.8099 
     6.5063e-6      19.5246 
    6.50967e-6      18.3675 
    6.51304e-6       17.326 
     6.5164e-6       16.388 
    6.51977e-6      15.5425 
    6.52381e-6      14.6361 
    6.52785e-6      13.8329 
    6.53189e-6      13.1193 
    6.53593e-6      12.4833 
    6.53997e-6      11.9146 
    6.54402e-6      11.4041 
     6.5494e-6      10.8012 
    6.55479e-6      10.2731 
    6.56018e-6      9.80768 
    6.56624e-6      9.34661 
    6.57297e-6      8.89883 
    6.57971e-6      8.50728 
    6.58644e-6      8.16248 
    6.59318e-6      7.85704 
    6.60328e-6      7.46017 
    6.61338e-6      7.12379 
     6.6218e-6      6.88163 
     6.6319e-6      6.62955 
      6.642e-6      6.41339 
     6.6521e-6      6.22817 
     6.6622e-6      6.07007 
