#ZVView-data-copy:  12-Mar-2026 01:27:57
#=======================================
#
#name:   JENDL-5: U-235(N,F)
#X.axis: Incident Energy
#Y.axis: Cross Section
#wdata:  2
#ldata:  45375
#data...
#            X            Y
#          MeV        barns
         1e-11      30924.7 
    1.1036e-11      29437.3 
   1.21731e-11      28028.6 
   1.34274e-11      26687.3 
   1.48109e-11      25410.2 
    1.6337e-11      24194.1 
   1.80203e-11      23036.3 
    1.9877e-11      21933.9 
   2.19251e-11      20884.2 
   2.41842e-11      19884.7 
   2.66761e-11        18933 
   2.94247e-11      18026.9 
   3.24565e-11      17164.1 
   3.58008e-11      16342.6 
   3.94896e-11      15560.4 
   4.35584e-11      14815.6 
   4.80466e-11      14106.5 
   5.29971e-11      13431.2 
   5.84578e-11      12788.3 
   6.44811e-11      12176.1 
   7.11251e-11      11593.2 
   7.84536e-11      11038.2 
   8.65372e-11      10509.7 
   9.54537e-11      10006.5 
   1.05289e-10      9527.38 
   1.16138e-10      9071.16 
   1.28104e-10      8636.74 
   1.41304e-10       8223.1 
   1.55863e-10      7829.23 
   1.71923e-10      7454.19 
   1.89637e-10      7097.08 
   2.09177e-10      6757.03 
    2.3073e-10      6433.24 
   2.54503e-10      6124.91 
   2.80727e-10      5831.32 
   3.09652e-10      5551.75 
   3.41557e-10      5285.53 
    3.7675e-10      5032.02 
    4.1557e-10      4790.61 
   4.58389e-10      4560.73 
    5.0562e-10      4341.82 
   5.57717e-10      4133.35 
   6.15183e-10      3934.82 
   6.78569e-10      3745.76 
   7.48487e-10      3565.71 
   8.25609e-10      3394.24 
   9.10677e-10      3230.93 
    1.00451e-9      3075.41 
    1.10801e-9      2927.28 
    1.22218e-9       2786.2 
    1.34811e-9      2651.83 
    1.48701e-9      2523.85 
    1.64023e-9      2401.95 
    1.80923e-9      2285.84 
    1.99565e-9      2175.24 
    2.20128e-9       2069.9 
    2.42809e-9      1969.55 
    2.67827e-9      1873.97 
    2.95423e-9      1782.93 
    3.25863e-9      1696.22 
    3.59439e-9      1613.63 
    3.96474e-9      1534.97 
    4.37326e-9      1460.05 
    4.82387e-9      1388.68 
     5.3209e-9       1320.7 
    5.86915e-9      1255.96 
    6.47389e-9       1194.3 
    7.14094e-9      1135.59 
    7.87672e-9      1079.68 
    8.68832e-9      1026.43 
    9.58353e-9      975.745 
     1.0571e-8      927.506 
    1.16602e-8      881.604 
    1.28616e-8      837.914 
    1.41868e-8      796.296 
    1.56486e-8      756.612 
     1.7261e-8      718.757 
    1.90395e-8       682.63 
    2.10013e-8      648.126 
    2.31652e-8      615.142 
    2.52483e-8      587.358 
       2.53e-8      586.711 
    2.79068e-8      556.342 
    3.07823e-8      527.218 
     3.3954e-8      499.267 
    3.74525e-8       472.43 
    4.13115e-8      446.665 
    4.55681e-8      421.923 
    4.99137e-8       399.85 
     5.4671e-8      378.629 
    5.98846e-8      358.237 
    6.55923e-8      338.695 
    7.18474e-8      319.963 
    7.86952e-8      302.064 
    8.55961e-8      286.297 
    9.31022e-8      271.266 
    1.01266e-7       256.98 
    1.10147e-7      243.516 
    1.18972e-7      231.901 
    1.28499e-7      221.073 
    1.38795e-7      211.121 
    1.48866e-7      202.951 
    1.58549e-7      196.436 
     1.6887e-7      190.866 
    1.78604e-7      186.874 
    1.88898e-7      183.963 
    1.98386e-7      182.499 
    2.05949e-7      182.158 
    2.16304e-7      182.864 
    2.27169e-7      184.943 
    2.41958e-7      189.433 
    2.59514e-7       195.22 
    2.68665e-7       197.22 
    2.76035e-7       197.79 
    2.82495e-7      197.325 
    2.90522e-7      195.372 
    2.98777e-7      191.789 
    3.07267e-7       186.64 
    3.18212e-7      178.389 
    3.50999e-7      150.327 
    3.63519e-7       140.45 
    3.76468e-7      131.274 
    3.87165e-7      124.511 
    3.98167e-7      118.279 
    4.09481e-7      112.562 
    4.21116e-7      107.326 
    4.36138e-7      101.391 
    4.51672e-7      96.0717 
    4.67784e-7       91.278 
    4.84446e-7      86.9525 
    5.01726e-7      83.0261 
    5.19597e-7      79.4579 
      5.419e-7      75.5838 
    5.65161e-7      72.1042 
     5.8942e-7       68.976 
    6.14721e-7      66.1679 
    6.41108e-7      63.6588 
    6.68627e-7      61.4395 
    6.97327e-7      59.5092 
     7.2726e-7      57.8804 
    7.58477e-7      56.5822 
    7.85532e-7       55.789 
    8.13512e-7      55.3095 
    8.33146e-7      55.1982 
     8.5682e-7       55.341 
    8.81167e-7      55.8521 
    8.99903e-7      56.5424 
    9.18991e-7      57.5637 
     9.3853e-7      59.0093 
    9.51771e-7      60.2649 
    9.65199e-7      61.8081 
    9.78817e-7      63.6974 
    9.92626e-7      66.0037 
    1.00663e-6      68.8143 
    1.01726e-6      71.3131 
    1.02798e-6      74.1951 
    1.03886e-6      77.5187 
    1.04984e-6      81.3022 
    1.05719e-6      84.0741 
    1.07211e-6      90.2003 
     1.0949e-6      99.9953 
    1.10257e-6      102.954 
    1.11035e-6      105.476 
    1.11813e-6      107.283 
    1.12441e-6      108.057 
    1.12755e-6      108.174 
    1.13395e-6      107.793 
    1.13995e-6      106.629 
    1.14542e-6       104.86 
    1.15018e-6      102.781 
    1.15626e-6      99.4418 
    1.16233e-6      95.4147 
    1.16847e-6      90.7767 
    1.17668e-6      83.9234 
    1.19708e-6      65.9936 
    1.20341e-6      60.7236 
    1.20975e-6      55.7659 
    1.21611e-6      51.1523 
    1.22253e-6       46.897 
    1.22682e-6      44.2887 
     1.2311e-6      41.8617 
    1.23544e-6      39.5819 
    1.23978e-6      37.4799 
    1.24412e-6      35.5498 
    1.24847e-6      33.7857 
    1.25285e-6      32.1664 
    1.25724e-6      30.7064 
    1.26163e-6      29.4019 
    1.26602e-6      28.2494 
    1.27048e-6      27.2294 
    1.27495e-6      26.3595 
    1.27941e-6      25.6339 
    1.28388e-6      25.0441 
    1.28855e-6      24.5587 
    1.29323e-6      24.1904 
    1.30043e-6      23.7981 
    1.32285e-6      22.9968 
    1.33212e-6      22.5255 
    1.34151e-6       21.924 
    1.36044e-6      20.5697 
    1.37379e-6      19.6842 
    1.38528e-6      19.0246 
    1.39993e-6      18.3189 
    1.41473e-6       17.738 
    1.42464e-6      17.4083 
    1.44474e-6      16.8525 
    1.46248e-6      16.4571 
    1.48312e-6       16.078 
    1.51168e-6      15.6541 
    1.54374e-6      15.2713 
    1.58761e-6      14.8478 
    1.64424e-6      14.4044 
    1.71482e-6      13.9528 
     1.7759e-6      13.6376 
    1.82636e-6      13.4494 
    1.86555e-6      13.3893 
    1.88949e-6      13.4276 
    1.90616e-6      13.5172 
    1.92143e-6      13.6774 
    1.93161e-6      13.8506 
    1.94179e-6      14.1067 
    1.94942e-6      14.3784 
    1.95706e-6      14.7479 
    1.96214e-6      15.0668 
    1.96723e-6      15.4595 
    1.97232e-6       15.942 
    1.97741e-6      16.5306 
    1.98161e-6      17.1073 
    1.98581e-6      17.7735 
    1.98861e-6      18.2692 
     1.9937e-6      19.2751 
    1.99879e-6      20.4038 
    2.00897e-6      22.8899 
    2.01457e-6       24.249 
    2.02017e-6      25.4682 
    2.02501e-6       26.321 
    2.02823e-6      26.7502 
    2.03146e-6      27.0487 
    2.03544e-6      27.2203 
    2.03634e-6      27.2277 
    2.04001e-6      27.1379 
    2.04307e-6      26.9176 
    2.04699e-6      26.4538 
    2.05076e-6      25.8378 
    2.05453e-6      25.0839 
    2.06019e-6      23.7681 
     2.0731e-6      20.4923 
    2.07819e-6       19.283 
    2.08328e-6      18.1855 
    2.08837e-6      17.2179 
    2.09257e-6      16.5203 
    2.09753e-6      15.8084 
    2.10249e-6      15.2076 
    2.10644e-6         14.8 
    2.11102e-6      14.3937 
    2.11789e-6       13.896 
    2.12462e-6      13.5103 
    2.13109e-6      13.2118 
     2.1397e-6       12.894 
    2.14839e-6      12.6406 
    2.16166e-6      12.3412 
     2.1754e-6      12.1041 
    2.19703e-6      11.8212 
    2.22803e-6      11.5219 
    2.26891e-6      11.2199 
    2.34538e-6      10.7621 
    2.44606e-6      10.1765 
    2.49794e-6       9.8159 
    2.53318e-6      9.51815 
    2.55999e-6      9.24713 
    2.58704e-6      8.91998 
    2.61435e-6      8.52123 
    2.64192e-6      8.04609 
    2.66987e-6       7.5405 
    2.68332e-6      7.34125 
    2.69158e-6      7.25792 
    2.69984e-6      7.22138 
    2.70603e-6      7.23481 
    2.71222e-6      7.29178 
    2.71705e-6      7.37127 
    2.72187e-6      7.48532 
    2.72669e-6      7.63703 
    2.73152e-6      7.82893 
    2.73634e-6      8.06279 
    2.74115e-6      8.33847 
    2.74595e-6      8.65585 
    2.75208e-6      9.12034 
    2.75897e-6      9.71432 
    2.76783e-6      10.5688 
    2.78052e-6       11.903 
    2.79401e-6      13.3367 
    2.80194e-6       14.134 
    2.80987e-6      14.8715 
    2.81781e-6      15.5371 
    2.82574e-6      16.1259 
    2.83367e-6      16.6395 
    2.84557e-6      17.2838 
    2.85351e-6      17.6435 
    2.86937e-6      18.2458 
    2.90904e-6      19.5272 
    2.92491e-6      20.1061 
    2.94077e-6      20.7898 
    2.95664e-6      21.6189 
    2.96854e-6      22.3629 
    2.98044e-6       23.236 
    2.99234e-6      24.2644 
    3.00424e-6      25.4791 
    3.01217e-6      26.4102 
    3.01988e-6      27.4213 
    3.02759e-6      28.5491 
     3.0353e-6      29.8057 
     3.0455e-6       31.686 
    3.05298e-6      33.2325 
    3.06294e-6      35.5248 
    3.07385e-6      38.3251 
    3.08476e-6      41.3782 
    3.10593e-6      47.5246 
    3.11537e-6      50.0159 
    3.12253e-6      51.6324 
    3.12968e-6      52.9156 
    3.13629e-6      53.7334 
    3.14273e-6      54.1388 
    3.14483e-6      54.1814 
    3.14903e-6      54.1301 
     3.1548e-6      53.7588 
    3.16057e-6      53.0442 
    3.16634e-6      52.0041 
    3.17211e-6      50.6688 
    3.17812e-6      49.0086 
    3.18412e-6      47.1271 
    3.19214e-6      44.3771 
    3.21376e-6      36.5827 
    3.22336e-6      33.3613 
    3.22976e-6      31.3851 
    3.23697e-6      29.3499 
    3.24418e-6      27.5247 
    3.25139e-6      25.9089 
    3.25859e-6      24.4941 
    3.26561e-6      23.2972 
    3.27263e-6      22.2637 
    3.27964e-6      21.3783 
    3.28666e-6      20.6259 
    3.29347e-6      20.0094 
    3.30028e-6      19.4932 
    3.30936e-6      18.9427 
    3.31844e-6      18.5306 
    3.32874e-6       18.209 
    3.33739e-6      18.0453 
    3.34749e-6      17.9644 
    3.34965e-6      17.9616 
     3.3576e-6      17.9933 
    3.36917e-6      18.1532 
    3.37869e-6      18.3839 
     3.3882e-6      18.7048 
    3.39762e-6      19.1139 
    3.40681e-6      19.6074 
    3.41601e-6      20.2017 
    3.42484e-6      20.8776 
    3.43349e-6       21.652 
    3.44214e-6      22.5534 
    3.45079e-6      23.6015 
    3.45943e-6      24.8214 
     3.4652e-6      25.7452 
    3.47134e-6      26.8401 
    3.47747e-6      28.0656 
    3.48361e-6      29.4401 
    3.48975e-6      30.9849 
    3.49514e-6      32.5024 
    3.50054e-6      34.1889 
    3.50593e-6      36.0645 
    3.51133e-6      38.1509 
    3.51751e-6      40.8331 
     3.5237e-6      43.8544 
    3.52783e-6      46.0713 
    3.53235e-6      48.6967 
    3.53687e-6      51.5307 
    3.54366e-6      56.1696 
    3.54976e-6       60.717 
    3.55745e-6      66.8542 
    3.57283e-6      79.6416 
    3.57907e-6      84.5329 
    3.58388e-6      87.9513 
    3.58868e-6       90.941 
    3.59349e-6      93.3864 
    3.59737e-6      94.8921 
    3.60182e-6      96.0314 
    3.60626e-6      96.4937 
      3.607e-6       96.502 
    3.61155e-6      96.1108 
    3.61515e-6      95.2614 
    3.61874e-6      93.9412 
     3.6235e-6      91.4945 
    3.62827e-6      88.3151 
    3.63145e-6      85.8325 
    3.63577e-6       82.049 
    3.64227e-6      75.6912 
    3.65068e-6      66.7151 
     3.6622e-6      54.2187 
    3.66778e-6      48.4615 
    3.67327e-6      43.1417 
    3.67693e-6      39.8216 
    3.68054e-6      36.7462 
    3.68408e-6      33.9132 
    3.68763e-6       31.274 
    3.69117e-6      28.8273 
    3.69487e-6      26.4776 
    3.69775e-6       24.781 
    3.70064e-6      23.1995 
    3.70352e-6      21.7276 
     3.7064e-6        20.36 
    3.70933e-6      19.0702 
    3.71236e-6      17.8379 
    3.71539e-6      16.7006 
    3.71839e-6      15.6612 
    3.72167e-6      14.6149 
    3.72496e-6      13.6569 
    3.72783e-6      12.8861 
     3.7307e-6      12.1723 
    3.73357e-6       11.511 
    3.73644e-6      10.8981 
    3.73931e-6      10.3299 
    3.74362e-6       9.5538 
    3.74792e-6      8.85965 
     3.7521e-6      8.25554 
    3.75628e-6       7.7123 
    3.76046e-6      7.22332 
    3.76463e-6       6.7828 
    3.76881e-6      6.38563 
    3.77299e-6      6.02729 
    3.77717e-6       5.7038 
    3.78135e-6       5.4116 
    3.78552e-6      5.14753 
     3.7897e-6      4.90879 
    3.79499e-6      4.63879 
    3.80001e-6      4.41263 
    3.80502e-6      4.21182 
    3.81004e-6      4.03341 
    3.81505e-6      3.87477 
    3.82006e-6      3.73359 
    3.82758e-6      3.55022 
    3.83538e-6      3.39061 
    3.84374e-6      3.24818 
     3.8521e-6      3.13016 
    3.86045e-6      3.03228 
    3.86602e-6       2.9765 
    3.87716e-6      2.88388 
    3.88719e-6       2.8184 
    3.89722e-6      2.76654 
    3.91226e-6      2.70898 
    3.92842e-6      2.66781 
    3.93956e-6      2.64892 
    3.96184e-6      2.62819 
    3.98022e-6      2.62357 
    4.01532e-6      2.63455 
    4.05752e-6      2.66702 
    4.18728e-6      2.80432 
    4.33664e-6      2.97264 
    4.39782e-6      3.05223 
    4.45987e-6      3.15119 
    4.50695e-6       3.2482 
    4.53863e-6      3.33068 
    4.56708e-6       3.4223 
     4.5923e-6      3.52323 
    4.61503e-6      3.63669 
    4.63525e-6      3.76316 
    4.65099e-6      3.88472 
    4.66222e-6      3.98833 
    4.67346e-6      4.11025 
     4.6847e-6      4.25608 
    4.69374e-6      4.39626 
     4.7006e-6      4.51995 
    4.70745e-6      4.66262 
    4.71431e-6      4.82904 
    4.71998e-6      4.98924 
    4.72672e-6      5.21279 
    4.73122e-6      5.38643 
    4.73571e-6      5.58393 
    4.74021e-6      5.80956 
     4.7447e-6      6.06827 
     4.7492e-6      6.36571 
    4.75369e-6      6.70813 
    4.75706e-6      6.99855 
    4.76043e-6       7.3211 
    4.76381e-6      7.67881 
    4.76718e-6      8.07466 
    4.77055e-6      8.51147 
    4.77392e-6      8.99173 
    4.77729e-6      9.51749 
    4.78066e-6      10.0902 
    4.78403e-6      10.7103 
     4.7874e-6      11.3776 
    4.79235e-6      12.4376 
    4.79774e-6      13.6927 
    4.80493e-6      15.4849 
    4.81617e-6      18.3549 
    4.82066e-6      19.4396 
    4.82516e-6      20.4377 
     4.8301e-6      21.3944 
    4.83415e-6      22.0379 
    4.83819e-6      22.5336 
    4.84197e-6      22.8482 
    4.84575e-6      23.0095 
    4.84826e-6      23.0288 
     4.8521e-6      22.9209 
    4.85616e-6      22.6293 
    4.86022e-6      22.1632 
    4.86393e-6      21.5962 
    4.86763e-6       20.909 
    4.87235e-6      19.8873 
    4.87685e-6      18.7942 
    4.88359e-6      17.0147 
    4.89415e-6      14.1418 
    4.89842e-6      13.0263 
    4.90292e-6      11.9132 
    4.90665e-6      11.0475 
    4.91111e-6      10.0933 
    4.91409e-6      9.50858 
    4.91812e-6      8.78395 
    4.92128e-6      8.26921 
    4.92444e-6      7.80108 
    4.92761e-6      7.37791 
    4.93077e-6      6.99755 
    4.93393e-6      6.65749 
    4.93697e-6      6.36659 
       4.94e-6      6.10767 
    4.94202e-6      5.95154 
    4.94607e-6      5.67541 
    4.95011e-6      5.44253 
    4.95416e-6      5.24731 
     4.9582e-6      5.08462 
    4.96225e-6      4.94985 
    4.96629e-6      4.83893 
    4.97079e-6      4.73935 
    4.97753e-6      4.62815 
    4.98427e-6      4.55304 
    4.99259e-6      4.49793 
     5.0027e-6      4.47212 
    5.00607e-6      4.47136 
    5.01619e-6      4.48768 
    5.02855e-6      4.53817 
    5.04203e-6      4.62318 
    5.05552e-6      4.73382 
    5.07069e-6      4.88496 
    5.08586e-6      5.06218 
    5.09597e-6      5.19436 
    5.11475e-6      5.46959 
    5.13352e-6      5.78465 
    5.15163e-6      6.12811 
    5.16974e-6      6.51289 
    5.18784e-6       6.9416 
    5.20595e-6      7.41683 
    5.22431e-6       7.9487 
    5.24267e-6      8.53267 
    5.26103e-6      9.16947 
     5.2794e-6      9.85856 
    5.30344e-6      10.8367 
    5.32749e-6      11.8938 
    5.35217e-6      13.0532 
    5.38451e-6      14.6765 
    5.41199e-6      16.0858 
    5.42804e-6      16.8265 
    5.43951e-6      17.2607 
    5.45155e-6      17.5937 
    5.46374e-6      17.7827 
    5.47331e-6      17.8284 
    5.48021e-6      17.8129 
    5.49627e-6      17.6659 
    5.52955e-6      17.2277 
     5.5685e-6      16.8646 
    5.60577e-6      16.5179 
    5.70325e-6      15.3915 
    5.73226e-6       15.134 
    5.76097e-6      14.9657 
    5.79015e-6      14.9055 
    5.80934e-6      14.9378 
    5.83306e-6      15.0688 
    5.85678e-6      15.3153 
    5.87744e-6      15.6393 
    5.89293e-6      15.9594 
    5.90842e-6      16.3549 
    5.92392e-6      16.8359 
    5.93941e-6      17.4147 
    5.95576e-6      18.1477 
    5.96803e-6      18.7916 
    5.98029e-6      19.5273 
    5.99256e-6      20.3657 
    6.00482e-6      21.3193 
    6.01853e-6      22.5375 
    6.02881e-6      23.5678 
    6.03909e-6      24.7069 
    6.04937e-6       25.962 
    6.05965e-6       27.339 
    6.07336e-6      29.3702 
    6.08707e-6      31.6221 
    6.10078e-6      34.0768 
    6.12038e-6      37.8541 
    6.14989e-6      43.6529 
    6.16521e-6      46.3937 
    6.17439e-6      47.8495 
     6.1844e-6      49.2291 
     6.1944e-6      50.3656 
    6.20691e-6      51.4295 
    6.21941e-6      52.1285 
    6.25214e-6       53.233 
    6.26094e-6      53.8003 
    6.26894e-6      54.6525 
    6.27495e-6      55.5953 
    6.28095e-6      56.8786 
    6.28525e-6       58.052 
    6.28956e-6      59.4708 
    6.29386e-6       61.165 
    6.29817e-6      63.1638 
    6.30237e-6      65.4328 
    6.30657e-6      68.0385 
    6.31077e-6      70.9972 
    6.31497e-6      74.3185 
    6.31897e-6      77.8219 
    6.32497e-6       83.677 
    6.33098e-6      90.1873 
    6.33848e-6      99.0501 
    6.35324e-6      117.299 
    6.35999e-6      125.072 
    6.36499e-6      130.193 
       6.37e-6      134.553 
     6.3745e-6      137.673 
      6.379e-6      139.913 
    6.38275e-6      141.039 
    6.38651e-6      141.449 
    6.39036e-6      141.099 
    6.39349e-6      140.234 
     6.3975e-6      138.372 
    6.40151e-6       135.69 
    6.40602e-6      131.762 
    6.41052e-6      126.954 
    6.41577e-6      120.394 
    6.42027e-6       114.11 
    6.42753e-6      103.098 
    6.44279e-6      78.8402 
    6.44904e-6      69.3717 
    6.45304e-6      63.6426 
    6.45754e-6      57.5727 
    6.46205e-6      51.9417 
    6.46592e-6      47.4669 
    6.46948e-6      43.6636 
    6.47304e-6      40.1555 
    6.47661e-6      36.9369 
    6.48017e-6      33.9983 
    6.48373e-6      31.3253 
     6.4873e-6       28.902 
    6.49087e-6      26.7152 
    6.49443e-6      24.7473 
      6.498e-6      22.9805 
    6.50157e-6       21.397 
    6.50495e-6      20.0513 
    6.50832e-6      18.8402 
     6.5117e-6      17.7503 
    6.51508e-6      16.7693 
    6.51845e-6      15.8857 
    6.52183e-6      15.0889 
    6.52521e-6      14.3694 
    6.52858e-6      13.7186 
    6.53309e-6      12.9445 
    6.53759e-6      12.2629 
    6.54242e-6      11.6188 
    6.54725e-6      11.0513 
    6.55208e-6      10.5487 
    6.55691e-6      10.1011 
    6.56335e-6      9.57618 
    6.57039e-6      9.08047 
    6.57742e-6      8.65087 
    6.58446e-6      8.27556 
    6.59149e-6       7.9454 
    6.60087e-6      7.56333 
    6.61088e-6        7.216 
    6.62088e-6      6.91957 
    6.63089e-6      6.66544 
    6.64089e-6      6.44712 
     6.6509e-6      6.25965 
    6.66091e-6      6.09921 
    6.67591e-6      5.90295 
